# TR: NSLS/X11 EDC-5.02 15-Sep-92 02:35:54 E- ENERGY=2.584GEV
# Cu foil, 50K, rolled and annealled foil by matt
# 2-SI111 HC/2D= 1977.260 STPDEG=6400. STPMMZ= 40. FOCUS=F TRANSLT=F
# E0= 8980.0 NREG= 3 NPTS= 619 NSCLRS= 3 EF=     .0
# SRB=   -197.6    -47.3     30.0   2381.3
# DEL=           10.020     .483     .050K
# SEC=             1.000    1.000    1.000
# DETECTORSI0      I       If
# GAINS           8       7      10
# OFFSETS     51284   50016   48319
# nsls 0.2p, Bruce Ravel   TR mode
# ----------------------------------------------------------------
#     energy              xmu
     8782.347            0.90849
     8792.351            0.88961
     8802.377            0.88487
     8812.386            0.88032
     8822.417            0.87581
     8832.431            0.87096
     8842.467            0.86691
     8852.485            0.86231
     8862.484            0.85778
     8872.507            0.85331
     8882.553            0.84887
     8892.579            0.84469
     8902.586            0.84056
     8912.616            0.83664
     8922.627            0.83326
     8932.618            0.83015
     8933.133            0.82999
     8933.605            0.83019
     8934.077            0.82994
     8934.550            0.82981
     8935.065            0.82969
     8935.538            0.82958
     8936.011            0.82956
     8936.526            0.82933
     8936.998            0.82919
     8937.471            0.82917
     8937.944            0.82893
     8938.417            0.82882
     8938.976            0.82867
     8939.406            0.82886
     8939.878            0.82858
     8940.352            0.82850
     8940.910            0.82849
     8941.384            0.82827
     8941.814            0.82821
     8942.287            0.82812
     8942.847            0.82790
     8943.319            0.82796
     8943.793            0.82792
     8944.224            0.82787
     8944.740            0.82783
     8945.214            0.82773
     8945.688            0.82791
     8946.161            0.82765
     8946.678            0.82764
     8947.151            0.82769
     8947.626            0.82767
     8948.100            0.82770
     8948.573            0.82776
     8949.090            0.82754
     8949.564            0.82755
     8950.038            0.82757
     8950.513            0.82777
     8950.987            0.82770
     8951.504            0.82758
     8951.979            0.82783
     8952.453            0.82765
     8952.927            0.82775
     8953.444            0.82796
     8953.919            0.82789
     8954.394            0.82822
     8954.868            0.82834
     8955.343            0.82816
     8955.860            0.82841
     8956.336            0.82847
     8956.811            0.82861
     8957.285            0.82899
     8957.761            0.82914
     8958.278            0.82947
     8958.753            0.82951
     8959.229            0.82982
     8959.703            0.83008
     8960.179            0.83037
     8960.654            0.83069
     8961.172            0.83106
     8961.647            0.83149
     8962.123            0.83196
     8962.599            0.83245
     8963.074            0.83290
     8963.593            0.83359
     8964.068            0.83441
     8964.544            0.83510
     8965.020            0.83569
     8965.496            0.83654
     8965.972            0.83761
     8966.490            0.83893
     8966.967            0.83991
     8967.442            0.84146
     8967.919            0.84297
     8968.395            0.84401
     8968.914            0.84600
     8969.390            0.84807
     8969.866            0.85025
     8970.343            0.85326
     8970.819            0.85569
     8971.296            0.86050
     8971.772            0.86330
     8972.292            0.86853
     8972.769            0.87348
     8973.245            0.88217
     8973.722            0.89092
     8974.198            0.90185
     8974.675            0.92160
     8975.238            0.94407
     8975.715            0.96747
     8976.192            1.01618
     8976.626            1.10479
     8977.103            1.23594
     8977.580            1.47038
     8978.057            1.65671
     8978.621            1.84163
     8979.055            1.87873
     8979.531            1.91096
     8980.009            1.90556
     8980.486            1.88218
     8980.964            1.85729
     8981.441            1.84364
     8981.962            1.85964
     8982.440            1.88395
     8982.918            1.93022
     8983.396            1.98216
     8983.873            2.02480
     8984.352            2.06056
     8984.829            2.09961
     8985.307            2.16109
     8985.828            2.20592
     8986.307            2.26872
     8986.784            2.34122
     8987.263            2.44319
     8987.741            2.52091
     8988.219            2.62976
     8988.697            2.73854
     8989.176            2.81665
     8989.741            2.91936
     8990.220            3.00789
     8990.698            3.09492
     8991.133            3.14641
     8991.611            3.19118
     8992.090            3.19892
     8992.568            3.18457
     8993.048            3.16211
     8993.526            3.12426
     8994.049            3.08078
     8994.527            3.04487
     8995.007            3.00439
     8995.485            2.96970
     8995.965            2.95024
     8996.444            2.93721
     8996.924            2.93096
     8997.402            2.93950
     8997.882            2.95954
     8998.361            2.99212
     8998.884            3.05879
     8999.363            3.10314
     8999.843            3.14804
     9000.323            3.19020
     9000.803            3.23250
     9001.281            3.24991
     9001.762            3.24604
     9002.241            3.22726
     9002.721            3.19269
     9003.201            3.16299
     9003.681            3.12856
     9004.161            3.08747
     9004.685            3.03943
     9005.165            3.01710
     9005.645            2.98068
     9006.125            2.95844
     9006.605            2.93435
     9007.086            2.91481
     9007.566            2.88729
     9008.047            2.86789
     9008.526            2.84798
     9009.007            2.83430
     9009.487            2.82590
     9009.969            2.82384
     9011.062            2.83381
     9012.153            2.84811
     9013.290            2.87430
     9014.428            2.90179
     9015.565            2.95247
     9016.746            3.00286
     9017.928            3.04263
     9019.154            3.10012
     9020.380            3.15615
     9021.606            3.20026
     9022.877            3.23445
     9024.191            3.23865
     9025.507            3.20509
     9026.822            3.14742
     9028.183            3.08610
     9029.543            3.01710
     9030.903            2.96699
     9032.309            2.93123
     9033.759            2.90731
     9035.164            2.90216
     9036.659            2.91212
     9038.109            2.93469
     9039.604            2.95607
     9041.145            2.96209
     9042.686            2.95199
     9044.227            2.94195
     9045.812            2.94873
     9047.397            2.97507
     9049.029            3.00219
     9050.660            3.00924
     9052.292            3.00363
     9053.969            3.00596
     9055.646            3.02752
     9057.368            3.05932
     9059.091            3.08685
     9060.814            3.10424
     9062.627            3.12216
     9064.440            3.14530
     9066.166            3.17707
     9067.981            3.21074
     9069.842            3.23666
     9071.702            3.23803
     9073.563            3.21296
     9075.470            3.16091
     9077.377            3.09148
     9079.329            3.03406
     9081.283            2.98940
     9083.282            2.94918
     9085.237            2.92847
     9087.282            2.92332
     9089.283            2.90120
     9091.330            2.84872
     9093.423            2.79861
     9095.516            2.76338
     9097.654            2.75598
     9099.750            2.77611
     9101.891            2.81292
     9104.033            2.85878
     9106.221            2.91148
     9108.454            2.96183
     9110.644            2.99260
     9112.924            2.99887
     9115.160            2.98323
     9117.488            2.96422
     9119.728            2.95922
     9122.057            3.00005
     9124.389            3.09705
     9126.765            3.21841
     9129.144            3.27907
     9131.567            3.28154
     9133.993            3.25247
     9136.421            3.22374
     9138.850            3.18948
     9141.279            3.12940
     9143.756            3.04780
     9146.278            2.94642
     9148.803            2.84065
     9151.328            2.73626
     9153.899            2.64594
     9156.519            2.58915
     9159.094            2.58269
     9161.716            2.63014
     9164.384            2.71639
     9167.009            2.81473
     9169.726            2.91200
     9172.399            2.97330
     9175.119            3.00647
     9177.842            2.99949
     9180.610            2.96110
     9183.381            2.92748
     9186.198            2.91024
     9188.973            2.90267
     9191.840            2.87473
     9194.663            2.83653
     9197.533            2.82878
     9200.451            2.87603
     9203.326            2.96919
     9206.293            3.06319
     9209.217            3.09330
     9212.188            3.09586
     9215.161            3.07888
     9218.183            3.03742
     9221.206            2.96227
     9224.230            2.87061
     9227.304            2.78479
     9230.379            2.72010
     9233.456            2.68045
     9236.581            2.66168
     9239.755            2.66799
     9242.885            2.69857
     9246.063            2.71966
     9249.242            2.71926
     9252.471            2.72476
     9255.702            2.73198
     9258.935            2.73589
     9262.217            2.75151
     9265.500            2.78259
     9268.787            2.81017
     9272.122            2.82938
     9275.459            2.83904
     9278.847            2.84042
     9282.235            2.83938
     9285.627            2.84887
     9289.067            2.86293
     9292.511            2.88118
     9295.957            2.89589
     9299.451            2.87464
     9302.949            2.82930
     9306.449            2.78583
     9310.000            2.73843
     9313.553            2.69575
     9317.108            2.67578
     9320.713            2.68112
     9324.320            2.69975
     9327.979            2.71324
     9331.592            2.69967
     9335.256            2.66152
     9338.969            2.61219
     9342.732            2.59063
     9346.405            2.61336
     9350.128            2.63665
     9353.900            2.63775
     9357.677            2.64809
     9361.550            2.66408
     9365.332            2.67200
     9369.165            2.68002
     9373.048            2.68901
     9376.935            2.69625
     9380.824            2.70387
     9384.718            2.70820
     9388.662            2.71029
     9392.609            2.71179
     9396.561            2.71253
     9400.563            2.70787
     9404.567            2.69093
     9408.624            2.65879
     9412.685            2.61919
     9416.748            2.58571
     9420.815            2.57291
     9424.935            2.57357
     9429.057            2.58266
     9433.231            2.59685
     9437.361            2.60434
     9441.544            2.60053
     9445.777            2.58591
     9449.966            2.55872
     9454.208            2.53241
     9458.501            2.52756
     9462.750            2.53543
     9467.052            2.53179
     9471.406            2.51957
     9475.716            2.51402
     9480.078            2.51387
     9484.444            2.52250
     9488.863            2.53667
     9493.238            2.54928
     9497.714            2.56358
     9502.146            2.58218
     9506.630            2.59650
     9511.118            2.60123
     9515.661            2.59256
     9520.158            2.56883
     9524.709            2.52671
     9529.265            2.48630
     9533.825            2.46768
     9538.438            2.46221
     9543.105            2.46027
     9547.679            2.45808
     9552.355            2.45876
     9557.036            2.46224
     9561.722            2.46255
     9566.462            2.45601
     9571.256            2.45076
     9575.956            2.44734
     9580.760            2.43931
     9585.568            2.42312
     9590.382            2.41547
     9595.201            2.41483
     9600.024            2.41334
     9604.903            2.41772
     9609.786            2.42092
     9614.676            2.41974
     9619.619            2.41921
     9624.567            2.42369
     9629.521            2.43041
     9634.480            2.42775
     9639.496            2.41988
     9644.516            2.41073
     9649.541            2.40172
     9654.622            2.39538
     9659.708            2.38607
     9664.800            2.37216
     9669.897            2.36198
     9675.051            2.35570
     9680.210            2.35147
     9685.374            2.35081
     9690.646            2.34481
     9695.771            2.33337
     9701.004            2.32918
     9706.293            2.32757
     9711.537            2.32300
     9716.839            2.31434
     9722.146            2.30762
     9727.458            2.30283
     9732.828            2.29451
     9738.204            2.29273
     9743.586            2.29418
     9748.975            2.29567
     9754.420            2.30144
     9759.820            2.30058
     9765.278            2.29799
     9770.794            2.29416
     9776.265            2.28563
     9781.793            2.27292
     9787.379            2.26377
     9792.869            2.26189
     9798.469            2.26177
     9804.075            2.26041
     9809.688            2.25789
     9815.306            2.25178
     9820.932            2.24042
     9826.669            2.23008
     9832.308            2.22053
     9838.059            2.21337
     9843.815            2.20937
     9849.475            2.20493
     9855.245            2.19897
     9861.023            2.19425
     9866.860            2.18922
     9872.652            2.18483
     9878.504            2.18282
     9884.362            2.17854
     9890.228            2.17539
     9896.153            2.17559
     9902.086            2.17525
     9908.026            2.17289
     9913.974            2.16886
     9919.929            2.16356
     9925.944            2.15787
     9931.966            2.15249
     9937.997            2.14756
     9944.034            2.14115
     9950.079            2.13336
     9956.186            2.12696
     9962.300            2.12183
     9968.421            2.11851
     9974.550            2.11577
     9980.741            2.11258
     9986.940            2.10496
     9993.093            2.09882
     9999.361            2.09581
    10005.580            2.08968
    10011.870            2.08288
    10018.110            2.07616
    10024.410            2.07069
    10030.770            2.06594
    10037.090            2.06070
    10043.460            2.05492
    10049.800            2.05092
    10056.190            2.04779
    10062.600            2.04754
    10069.070            2.04745
    10075.490            2.04361
    10081.970            2.03900
    10088.460            2.03261
    10094.960            2.02822
    10101.530            2.02330
    10108.050            2.01786
    10114.630            2.01171
    10121.170            2.00582
    10127.770            2.00004
    10134.490            1.99505
    10141.050            1.99073
    10147.790            1.98550
    10154.370            1.98105
    10161.120            1.97816
    10167.890            1.97292
    10174.550            1.96737
    10181.280            1.96128
    10188.070            1.95492
    10194.870            1.94962
    10201.680            1.94495
    10208.500            1.94034
    10215.390            1.93637
    10222.230            1.93310
    10229.130            1.93025
    10236.100            1.92677
    10242.970            1.92263
    10249.910            1.91711
    10256.850            1.91192
    10263.860            1.90818
    10270.880            1.90363
    10277.910            1.89906
    10284.950            1.89457
    10292.000            1.88974
    10299.050            1.88536
    10306.240            1.88066
    10313.320            1.87546
    10320.410            1.87044
    10327.620            1.86432
    10334.730            1.85871
    10341.960            1.85346
    10349.210            1.84843
    10356.460            1.84392
    10363.610            1.84010
    10370.890            1.83507
    10378.170            1.83002
    10385.530            1.82492
    10392.840            1.81991
    10400.160            1.81517
    10407.540            1.81110
    10414.940            1.80756
    10422.350            1.80353
    10429.770            1.79796
    10437.200            1.79266
    10444.640            1.78841
    10452.150            1.78354
    10459.610            1.77865
    10467.140            1.77495
    10474.690            1.76998
    10482.240            1.76573
    10489.810            1.76090
    10497.440            1.75616
    10505.090            1.75143
    10512.630            1.74654
    10520.300            1.74126
    10527.980            1.73597
    10535.680            1.73113
    10543.380            1.72604
    10551.100            1.72131
    10558.830            1.71587
    10566.630            1.71060
    10574.380            1.70552
    10582.200            1.70082
    10590.040            1.69626
    10597.880            1.69147
    10605.800            1.68733
    10613.610            1.68271
    10621.500            1.67762
    10629.450            1.67293
    10637.360            1.66840
    10645.340            1.66408
    10653.270            1.65915
    10661.270            1.65443
    10669.290            1.64935
    10677.320            1.64436
    10685.360            1.63967
    10693.470            1.63497
    10701.540            1.63041
    10709.680            1.62582
    10717.770            1.62126
    10725.940            1.61649
    10734.120            1.61164
    10742.370            1.60701
    10750.450            1.60198
    10758.730            1.59692
    10766.960            1.59163
    10775.260            1.58674
    10783.450            1.58215
    10791.780            1.57698
    10800.130            1.57263
    10808.420            1.56846
    10816.790            1.56408
    10825.180            1.55933
    10833.570            1.55465
    10841.980            1.54963
    10850.410            1.54514
    10858.840            1.54020
    10867.360            1.53583
    10875.820            1.53097
    10884.300            1.52667
    10892.850            1.52135
    10901.420            1.51684
    10909.940            1.51190
    10918.530            1.50733
    10927.210            1.50263
    10935.770            1.49833
    10944.400            1.49366
    10953.120            1.48892
    10961.790            1.48400
    10970.530            1.47936
    10979.160            1.47443
    10987.930            1.46968
    10996.650            1.46484
    11005.450            1.45991
    11014.270            1.45511
    11023.030            1.45055
    11031.880            1.44618
    11040.740            1.44143
    11049.610            1.43690
    11058.500            1.43252
    11067.400            1.42773
